s,velocity,energy,time
0,0,0,0
1.40E-38,4.51E-33,0,3.16E-30
1.74E-38,9.92E-33,7.82E-44,6.93E-30
2.09E-38,1.53E-32,1.56E-43,1.07E-29
2.08E-15,3.27E-09,4.73E-20,2.28E-06
1.04E-14,9.81E-09,8.02E-19,6.85E-06
2.70E-14,1.63E-08,4.42E-18,1.14E-05
6.98E-14,2.66E-08,2.92E-17,1.86E-05
2.69E-13,5.24E-08,4.64E-16,3.68E-05
5.99E-13,7.82E-08,2.12E-15,5.49E-05
1.06E-12,1.04E-07,6.33E-15,7.31E-05
1.65E-12,1.30E-07,1.49E-14,9.13E-05
2.37E-12,1.56E-07,3.02E-14,0.00010944
3.22E-12,1.82E-07,5.47E-14,0.000127608
4.46E-12,2.15E-07,1.03E-13,0.000150003
5.90E-12,2.49E-07,1.76E-13,0.000172398
8.25E-12,2.97E-07,3.36E-13,0.000203486
1.10E-11,3.48E-07,5.82E-13,0.000234574
1.54E-11,4.21E-07,1.08E-12,0.000275377
2.06E-11,5.01E-07,1.83E-12,0.00031618
2.86E-11,6.15E-07,3.25E-12,0.000367417
3.83E-11,7.47E-07,5.33E-12,0.000418655
5.34E-11,9.43E-07,9.12E-12,0.000482978
7.23E-11,1.18E-06,1.45E-11,0.000547301
1.03E-10,1.54E-06,2.43E-11,0.000628615
1.43E-10,1.99E-06,3.79E-11,0.000709929
1.94E-10,2.53E-06,5.63E-11,0.000791243
2.74E-10,3.32E-06,8.60E-11,0.000889846
3.78E-10,4.27E-06,1.25E-10,0.000988448
5.43E-10,5.65E-06,1.88E-10,0.001108634
7.60E-10,7.30E-06,2.70E-10,0.001228821
1.12E-09,9.78E-06,4.04E-10,0.001380296
1.59E-09,1.27E-05,5.78E-10,0.001531771
2.43E-09,1.73E-05,8.80E-10,0.001732455
3.55E-09,2.27E-05,1.27E-09,0.001933139
5.70E-09,3.18E-05,2.01E-09,0.002217411
8.64E-09,4.26E-05,3.00E-09,0.002501682
1.52E-08,6.28E-05,5.12E-09,0.00294693
2.76E-08,9.43E-05,9.04E-09,0.003515903
5.61E-08,0.000151951,1.78E-08,0.004350201
9.95E-08,0.000222628,3.10E-08,0.005184498
1.61E-07,0.000305918,4.93E-08,0.006018795
2.43E-07,0.000401492,7.37E-08,0.006853093
3.48E-07,0.00050917,1.05E-07,0.00768739
4.80E-07,0.000628937,1.44E-07,0.008521688
6.41E-07,0.000760952,1.92E-07,0.009355985
8.34E-07,0.000905519,2.50E-07,0.010190282
1.06E-06,0.00106305,3.18E-07,0.01102458
1.33E-06,0.001234014,3.97E-07,0.011858877
1.71E-06,0.001464567,5.12E-07,0.012889881
2.17E-06,0.001717149,6.47E-07,0.013920885
2.70E-06,0.001992397,8.04E-07,0.014951889
3.49E-06,0.002374467,1.04E-06,0.016258386
4.43E-06,0.002794214,1.31E-06,0.017564883
5.53E-06,0.003251913,1.63E-06,0.018871381
7.17E-06,0.003887064,2.10E-06,0.020528187
9.12E-06,0.004583413,2.66E-06,0.022184993
1.14E-05,0.005340881,3.30E-06,0.0238418
1.48E-05,0.006389973,4.26E-06,0.025944393
1.89E-05,0.00753708,5.39E-06,0.028046986
2.37E-05,0.008781957,6.69E-06,0.030149579
2.92E-05,0.01012436,8.20E-06,0.032252172
3.55E-05,0.011564044,9.91E-06,0.034354765
4.27E-05,0.013100764,1.18E-05,0.036457359
5.08E-05,0.014734277,1.40E-05,0.038559952
6.21E-05,0.016855522,1.70E-05,0.041122369
7.49E-05,0.019119722,2.04E-05,0.043684785
8.94E-05,0.021526435,2.42E-05,0.046247202
0.00010559,0.024075223,2.84E-05,0.048809619
0.000128394,0.027442833,3.43E-05,0.051996627
0.000154276,0.031028696,4.10E-05,0.055183636
0.000183428,0.034831969,4.85E-05,0.058370644
0.000216044,0.03885181,5.68E-05,0.061557653
0.000261742,0.044152553,6.84E-05,0.065521637
0.00031346,0.04978542,8.15E-05,0.06948562
0.000371562,0.055748798,9.62E-05,0.073449604
0.000436412,0.062041081,0.000112429,0.077413588
0.00050837,0.068660664,0.000130417,0.081377572
0.000587796,0.075605947,0.000150202,0.085341556
0.000675049,0.082875331,0.000171865,0.08930554
0.000770483,0.090467224,0.000195485,0.093269523
0.000874454,0.098380033,0.000221143,0.097233507
0.00095225,0.104091781,0.000240297,0.1
0.001086935,0.113613603,0.000273374,0.104454325
0.001233649,0.123535004,0.000309302,0.10890865
0.001392884,0.133853745,0.000348191,0.113362974
0.001565131,0.144567594,0.000390147,0.117817299
0.001750877,0.155674326,0.000435278,0.122271624
0.001994281,0.16962903,0.00049426,0.127658911
0.002258991,0.184151268,0.000558227,0.133046198
0.002545856,0.199237134,0.000627362,0.138433485
0.002855714,0.214882737,0.000701846,0.143820772
0.003189402,0.231084199,0.000781857,0.149208059
0.003634191,0.251786907,0.000888219,0.155840228
0.004117884,0.273319007,0.001003551,0.162472397
0.004642003,0.295673345,0.001128174,0.169104566
0.005208055,0.318842795,0.001262402,0.175736735
0.005817536,0.342820263,0.001406545,0.182368905
0.00663293,0.37355386,0.001598827,0.190564119
0.007519665,0.405497184,0.00180728,0.198759334
0.007660263,0.410437822,0.001840274,0.2
0.007712503,0.412263487,0.001852529,0.200456177
0.007817447,0.415922205,0.001877143,0.201368532
0.008020756,0.422960978,0.001924803,0.203113496
0.008373959,0.435040302,0.00200753,0.206077435
0.0091095,0.45962727,0.002179523,0.211996834
0.010340923,0.499257682,0.002466668,0.221243247
0.011676032,0.540365659,0.002776965,0.23048966
0.013118599,0.582932674,0.00311115,0.239736073
0.014672347,0.626940323,0.00346994,0.248982486
0.016340953,0.672370331,0.003854034,0.2582289
0.01866886,0.733035756,0.004387955,0.270154938
0.021201543,0.795998598,0.004966525,0.282080976
0.023946551,0.861220561,0.005591115,0.294007015
0.025408222,0.894837487,0.005922733,0.3
0.025585152,0.898853196,0.005962826,0.300708621
0.025940595,0.906900132,0.006043351,0.302125863
0.02662659,0.922317026,0.006198656,0.304826017
0.028051244,0.95387531,0.006520754,0.31029321
0.031926644,1.036852701,0.007394076,0.324309629
0.03613083,1.122767282,0.008337167,0.338326049
0.041629068,1.229708889,0.00956433,0.355153984
0.047636655,1.340696907,0.010897881,0.371981919
0.054172269,1.455631093,0.012340756,0.388809854
0.058819023,1.534198247,0.01336204,0.4
0.058944128,1.536279809,0.013389485,0.400293162
0.059194678,1.540445226,0.013444444,0.400879486
0.060259611,1.558075765,0.013677925,0.40335406
0.062906285,1.601387619,0.014257387,0.409385481
0.071814872,1.742293446,0.016199645,0.428568479
0.081486823,1.887902874,0.018295244,0.447751476
0.094397352,2.072262255,0.021073042,0.471224187
0.108531405,2.263205654,0.024090906,0.494696897
0.111897728,2.307235559,0.024806407,0.5
0.112137954,2.310356385,0.024857416,0.500374321
0.112619056,2.316601232,0.024959559,0.501122964
0.114677898,2.343208194,0.025396391,0.504304136
0.119807476,2.408694532,0.026482778,0.512076384
0.13741119,2.625403878,0.030190309,0.537254028
0.156554288,2.848909179,0.034188705,0.562431673
0.182387658,3.133832007,0.039533953,0.593521144
0.188082077,3.194417605,0.040705113,0.6
0.188494454,3.19877415,0.040789821,0.600464102
0.189320333,3.207491382,0.040959442,0.601392306
0.192855384,3.244630973,0.041684887,0.605337112
0.201670833,3.336058196,0.043489797,0.614982186
0.228299123,3.602641375,0.048906255,0.642613255
0.256998035,3.875612833,0.054685513,0.670244325
0.29027383,4.176152998,0.061311862,0.7
0.2909382,4.181996103,0.061443381,0.700571912
0.292268797,4.193686519,0.061706729,0.701715735
0.295951998,4.225923861,0.06243508,0.70486541
0.301219103,4.271720524,0.06347508,0.709328195
0.309697278,4.344706927,0.065145274,0.71641267
0.326330455,4.485388544,0.0684085,0.729975249
0.367605345,4.821308263,0.076431647,0.761907009
0.420783866,5.230025205,0.086623316,0.8
0.421779785,5.237446599,0.086812718,0.800684553
0.423774446,5.252294342,0.087191954,0.802053658
0.43233307,5.31564092,0.088816751,0.807884702
0.453776532,5.471855224,0.092870638,0.822196913
0.517734188,5.918212185,0.104820498,0.862626448
0.581346257,6.336627732,0.116508197,0.9
0.581776039,6.339376264,0.116586523,0.900244064
0.582635976,6.344873681,0.116743224,0.900732193
0.586946844,6.372371223,0.117528243,0.903172835
0.598776279,6.447309297,0.119677883,0.909816677
0.625143476,6.611673866,0.124445366,0.924354089
0.686416963,6.980033434,0.135393994,0.956812786
0.737641203,7.274271015,0.144405809,0.982686692
0.773097764,7.470873902,0.150563768,1
0.77400706,7.475838959,0.150720774,1.000437873
0.775826859,7.485768036,0.151034901,1.001313618
0.784962064,7.535379542,0.152608886,1.005692343
0.803823804,7.636584611,0.155842961,1.014643361
0.843194012,7.84236423,0.162519038,1.032956329
0.88360479,8.045698832,0.169256261,1.051269298
0.925041044,8.245544727,0.176025177,1.069582266
0.967482698,8.440985843,0.182793829,1.087895235
0.996077633,8.567483893,0.187254323,1.1
1.008445865,8.620587365,0.189150382,1.105165035
1.033333605,8.726025334,0.19293478,1.115495105
1.066883047,8.86392464,0.197942043,1.129227719
1.122561158,9.083455771,0.206037869,1.15156426
1.179586374,9.298152887,0.214095718,1.173900801
1.247888733,9.544455165,0.22350678,1.2
1.249325371,9.549520751,0.223702272,1.200541587
1.25220017,9.559648869,0.224093292,1.201624761
1.266619812,9.610200461,0.226049618,1.207040632
1.321785147,9.799997472,0.233464857,1.227503608
1.398159394,10.05426702,0.243576946,1.255200155
1.476480297,10.30605084,0.253796837,1.282896702
1.5258103,10.46047171,0.260168604,1.3
1.529302685,10.47128432,0.260617872,1.301200673
1.536294663,10.4929026,0.261516902,1.303602018
1.55524116,10.55119227,0.263948777,1.310084348
1.580803977,10.62917982,0.267220308,1.318774105
1.63704172,10.79820794,0.274381264,1.33767103
1.751455797,11.13211611,0.288811555,1.375234604
1.828789122,11.35086566,0.298471202,1.4
1.834699693,11.36735506,0.299206455,1.401871857
1.846537978,11.40032276,0.300678328,1.40561557
1.901736462,11.55252103,0.307521569,1.422930595
2.01090861,11.84656118,0.320967198,1.456523343
2.156262352,12.22490658,0.338704937,1.5
2.163624971,12.24368113,0.339598613,1.502164825
2.178372782,12.2812194,0.341387877,1.506494475
2.242041732,12.44174125,0.349093935,1.525036609
2.40106615,12.83240215,0.368219058,1.570338869
2.447586974,12.94407761,0.373783178,1.583333333
2.447586974,12.94407761,0.373783178,1.583333333
2.466416288,12.98889527,0.376010676,1.588552063
2.507877163,13.08726948,0.380869827,1.6
2.512210464,13.09751529,0.38137219,1.601191057
2.520883848,13.11801293,0.382376263,1.60357317
2.539633569,13.1622607,0.384537874,1.608710027
2.571695023,13.23775525,0.388210756,1.617454054
2.625145656,13.36326416,0.394286176,1.631921341
2.67910244,13.48965314,0.400377409,1.646388627
2.753980872,13.66476635,0.408788867,1.666242659
2.829830937,13.8420126,0.417278716,1.686096691
2.883531553,13.96751301,0.423277964,1.7
2.885210299,13.97143724,0.423465397,1.70043256
2.888568735,13.97928806,0.423840358,1.70129768
2.905389257,14.01861408,0.42571805,1.705623281
2.968757222,14.16688415,0.432789228,1.721810661
3.116204908,14.51312213,0.449248216,1.758826808
3.284470906,14.91173247,0.468094108,1.8
3.286306779,14.91610731,0.4683003,1.800443088
3.289979602,14.92486095,0.46871284,1.801329263
3.308376113,14.96875003,0.470780282,1.805760139
3.365471028,15.10546497,0.477209873,1.819429104
3.491853978,15.41128787,0.49153164,1.849247389
3.712976179,15.95812946,0.516957825,1.9
3.785116126,16.13955343,0.525367897,1.91609114
3.828546437,16.24868908,0.530434805,1.925745824
3.872269937,16.35819957,0.535538039,1.935400507
3.937241384,16.51949134,0.54309833,1.949628831
4.026548286,16.73731047,0.553387676,1.968963513
4.117019009,16.95288363,0.563635644,1.988298195
4.172334495,17.0821664,0.569800748,2
4.219047673,17.18922401,0.57491636,2.009783306
4.313052155,17.40195912,0.585095037,2.029349918
4.432560973,17.66478988,0.597704866,2.053887793
4.595488819,18.00994502,0.614316444,2.086770462
4.661923968,18.14649983,0.620904706,2.1
4.786397737,18.39229963,0.632798005,2.12436376
5.038610771,18.87481061,0.65620251,2.173091279
5.180660178,19.13352664,0.668799146,2.2
5.184576369,19.14053045,0.669140575,2.200736567
5.192411617,19.15452969,0.669823087,2.202209702
5.221153884,19.20565544,0.67231658,2.207604471
5.263353699,19.28007984,0.675948801,2.215499309
5.342620745,19.41786711,0.682680588,2.230247449
5.527123984,19.72882332,0.697907126,2.264181948
5.725002757,20.04796744,0.713584898,2.3
5.729515951,20.05507832,0.713934753,2.300810144
5.738545536,20.06929064,0.714634056,2.302430431
5.767706976,20.11499408,0.716883574,2.307655418
5.810518444,20.18155495,0.720161617,2.315304772
5.884994169,20.29585488,0.725796021,2.328552291
6.11847963,20.6424403,0.742921747,2.369616417
6.293750376,20.89148144,0.755266428,2.4
6.311072027,20.91555567,0.756461659,2.402981415
6.345755107,20.96358632,0.758846893,2.408944244
6.500287579,21.17347775,0.769284673,2.435349354
6.797423876,21.55914091,0.788525428,2.485413717
6.884997618,21.66852255,0.793997599,2.5
6.904895745,21.69307325,0.795226682,2.503302126
6.944736917,21.74204064,0.797678816,2.509906378
7.041066977,21.85889362,0.803535902,2.525813753
7.165808831,22.00704854,0.810973089,2.546288438
7.452251709,22.33442588,0.827451617,2.592799944
7.496970462,22.3839774,0.829951332,2.6
7.564343257,22.45742277,0.833660699,2.610800084
7.699525597,22.60300488,0.841019683,2.632400253
7.995432314,22.90969614,0.856564465,2.679211985
8.128105424,23.04208917,0.863293071,2.7
8.213844505,23.12544902,0.867536625,2.71334723
8.385933986,23.29033275,0.875938955,2.740041691
8.735893777,23.61127753,0.892344661,2.793765017
8.776818538,23.64759609,0.894205552,2.8
8.795261511,23.66386287,0.895039203,2.802805742
8.832172754,23.69632034,0.896702966,2.808417227
8.925892488,23.77785733,0.90088571,2.822630893
9.049966667,23.88391018,0.906332947,2.841374094
9.316612615,24.10481187,0.917704483,2.881380386
9.441544893,24.20512558,0.92288006,2.9
9.472191192,24.22937428,0.92413247,2.904553427
9.5335449,24.27768791,0.926628659,2.91366028
9.801234802,24.48319517,0.937265828,2.953187195
10.1211299,24.71797349,0.949457756,3
10.15570407,24.74261309,0.950739692,3.005030472
10.22492099,24.79168595,0.953293798,3.015091415
10.38316589,24.90199094,0.959041971,3.038019147
10.58246939,25.03728502,0.966106071,3.066753749
10.81439482,25.18982504,0.974089231,3.1
10.85114713,25.21347154,0.975328422,3.105247525
10.9247204,25.26055809,0.977796959,3.115742575
11.08726991,25.36284005,0.983165908,3.138861461
11.29152055,25.48804007,0.989750743,3.167781404
11.520237,25.62400778,0.996918426,3.2
11.5591618,25.64665268,0.998114146,3.205463843
11.63707983,25.69173685,1.000495712,3.21639153
11.98352507,25.8864228,1.010802878,3.264753196
12.23764404,26.0234351,1.018079993,3.3
12.27859426,26.04502081,1.019228088,3.305660229
12.36056225,26.08798925,1.021514478,3.316980686
12.54350823,26.18219797,1.026534424,3.342180731
12.77303756,26.29717702,1.03267453,3.373671411
12.96570503,26.39101615,1.03769702,3.4
13.00926691,26.41185243,1.038813411,3.40593759
13.09645906,26.45331968,1.041036223,3.417812771
13.28357041,26.54072529,1.045728335,3.443234528
13.51761809,26.64710012,1.05145158,3.474917404
13.70356528,26.72934389,1.055886512,3.5
13.74954622,26.74931972,1.056965314,3.506188247
13.84157643,26.78906654,1.059112915,3.518564741
14.25075397,26.96027858,1.068388605,3.573376167
14.45043617,27.04065432,1.072757711,3.6
14.49862877,27.05970432,1.073794382,3.606411503
14.59508146,27.09760207,1.075857808,3.619234508
14.80319236,27.17783738,1.080233678,3.646841809
15.06307048,27.27516691,1.085555551,3.681203963
15.20561338,27.32723837,1.088409186,3.7
15.37623231,27.38779085,1.091734595,3.72242708
15.71821084,27.50668002,1.098276122,3.76728124
15.96858809,27.59064594,1.102911741,3.8
16.14840094,27.6488202,1.106132575,3.823412438
16.5087689,27.76295024,1.112464402,3.870237314
16.73858712,27.8332152,1.116376183,3.9
16.92782041,27.8890391,1.119495204,3.924426795
17.3070295,27.99846976,1.125623082,3.973280385
17.5150526,28.0564657,1.128882412,4
17.71408816,28.11009026,1.131904864,4.025490065
18.11290297,28.21512059,1.137839183,4.076470196
18.29747218,28.26211499,1.140504266,4.1
18.50665363,28.31362922,1.143434244,4.126596845
18.9257613,28.41443751,1.149183225,4.179790536
19.08537682,28.45158258,1.151309684,4.2
19.32291841,28.5049901,1.154376854,4.23
19.79887014,28.60921822,1.160381523,4.29
19.87836363,28.62608861,1.16135719,4.3
20.27706983,28.70684698,1.16605042,4.35
20.67632551,28.78597033,1.170661472,4.4
20.91658666,28.83133844,1.173322221,4.43
21.39784682,28.91988048,1.17853323,4.49
21.47819973,28.93421256,1.179380335,4.5
21.59763375,28.95517875,1.18062084,4.514849242
21.83667265,28.99660309,1.183076239,4.544547727
21.85650749,29,1.183277927,4.547010437
21.85650749,29,1.183277927,4.547010437
21.85657222,29.00001103,1.183277927,4.547018473
21.85663782,29.00002216,1.183277927,4.547026617
21.85670493,29.00003351,1.183277927,4.547034947
21.85670493,29.00003351,1.183277927,4.547034947
21.85670493,29.00003351,1.183277927,4.547034947
21.85670493,29.00003351,1.183277927,4.547034947
21.85674564,29.00004033,1.183277927,4.547040001
21.85674564,29.00004033,1.183277927,4.547040001
21.85678635,29.00004716,1.183277927,4.547045054
21.85686776,29.00006075,1.183277927,4.547055161
21.85694918,29.00007424,1.183277927,4.547065268
21.85712865,29.00010363,1.183277927,4.547087547
21.8575343,29.00016832,1.183277927,4.547137903
21.85793995,29.00023066,1.183277927,4.547188259
21.85834559,29.00029071,1.183277927,4.547238615
21.85875124,29.00034857,1.183277927,4.547288971
21.85926188,29.00041838,1.183277927,4.54735236
21.85977253,29.00048495,1.183277927,4.547415749
21.86028317,29.00054843,1.183277927,4.547479138
21.86079382,29.00060893,1.183277927,4.547542527
21.86147431,29.00068516,1.183277927,4.547627001
21.86215481,29.00075661,1.183277927,4.547711474
21.86283531,29.00082354,1.183277927,4.547795948
21.86365785,29.00089878,1.183277927,4.547898053
21.86448038,29.00096819,1.183277927,4.548000157
21.86530292,29.00103217,1.183277927,4.548102262
21.86630115,29.00110305,1.183277927,4.548226175
21.86729937,29.00116705,1.183277927,4.548350088
21.8682976,29.00122473,1.183277927,4.548474001
21.86954148,29.00128853,1.183277927,4.548628407
21.87078536,29.00134417,1.183277927,4.548782812
21.87229823,29.00140205,1.183277927,4.548970608
21.8738111,29.00145034,1.183277927,4.549158403
21.87569699,29.00149885,1.183277927,4.549392502
21.87758288,29.00153611,1.183277927,4.5496266
21.88011658,29.00157138,1.183277927,4.549941112
21.88265028,29.0015925,1.183277927,4.550255623
21.88670152,29.00160374,1.183277927,4.550758507
21.89179347,29.00158875,1.183277927,4.551390576
21.89688541,29.0015514,1.183277927,4.552022646
21.90197735,29.00149941,1.183277927,4.552654715
21.90706927,29.00143783,1.183277927,4.553286784
21.91216119,29.00136997,1.183277927,4.553918853
21.91725309,29.00129799,1.183277927,4.554550922
21.92362793,29.0012042,1.183277927,4.555342248
21.93000275,29.00110786,1.183277927,4.556133573
21.93767385,29.00099001,1.183277927,4.557085813
21.94534492,29.00087097,1.183277927,4.558038053
21.95471798,29.00072473,1.183277927,4.559201574
21.964091,29.00057804,1.183277927,4.560365094
21.97610699,29.00038973,1.183277927,4.56185671
21.9881229,29.0002013,1.183277927,4.563348325
22.00451764,28.99994413,1.183277927,4.565383529
22.02091222,28.99968695,1.183277927,4.567418732
22.04549629,28.9993013,1.183277927,4.5704706
22.07605106,28.99882198,1.183277927,4.574263729
22.11998822,28.99813275,1.183277927,4.579718283
22.18378674,28.99713198,1.183277927,4.587638747
22.28335098,28.99557022,1.183277927,4.6
22.53673093,28.99166012,1.183277927,4.631463111
23.08859381,28.98314473,1.183277927,4.7
23.79541418,28.97242746,1.183277927,4.787826721
23.89338095,28.97094205,1.183277927,4.8
24.383079,28.9636513,1.183277927,4.860866393
24.69790135,28.95896442,1.183277927,4.9
25.50198465,28.94699883,1.183277927,5
26.30574208,28.93526758,1.183277927,5.1
27.10918036,28.92377794,1.183277927,5.2
27.91230639,28.91253715,1.183277927,5.3
28.71512729,28.90155228,1.183277927,5.4
29.51764328,28.89057576,1.183277927,5.5
30.31986167,28.879862,1.183277927,5.6
31.12178993,28.86941726,1.183277927,5.7
31.92343569,28.85924738,1.183277927,5.8
32.72480673,28.84935766,1.183277927,5.9
33.52590327,28.83947541,1.183277927,6
34.32673322,28.82987803,1.183277927,6.1
35.12730459,28.82056925,1.183277927,6.2
35.92762548,28.81155212,1.183277927,6.3
36.72770406,28.80282878,1.183277927,6.4
37.5275405,28.79411201,1.183277927,6.5
38.32714301,28.78569037,1.183277927,6.6
39.12651979,28.77756397,1.183277927,6.7
39.92567901,28.76973202,1.183277927,6.8
40.72462881,28.76219269,1.183277927,6.9
41.52336933,28.75465901,1.183277927,7
42.32190865,28.74741519,1.183277927,7.1
43.12025468,28.74045716,1.183277927,7.2
43.91841523,28.73377992,1.183277927,7.3
44.71639794,28.72737741,1.183277927,7.4
45.51420293,28.72097969,1.183277927,7.5
46.31183764,28.71484976,1.183277927,7.6
47.1093093,28.70897947,1.183277927,7.7
47.90662484,28.70335976,1.183277927,7.8
